Time µs,Current.Ia,Current.Ib,Current.Ic,Current.In,Voltage.Va,Voltage.Vb,Voltage.Vc
1124496000000000000,242.160263061523,-599.647338867188,457.888214111328,0.257859855890274,298.432800292969,-8455.0947265625,8687.5595703125
1124496000000130048,260.598876953125,-603.318603515625,430.95361328125,0.224092483520508,808.255493164063,-8690.6474609375,8476.576171875
1124496000000259968,279.037475585938,-605.766174316406,402.794708251953,0.193394884467125,1280.77404785156,-8889.0078125,8215.94921875
1124496000000390016,297.47607421875,-606.989929199219,370.962921142578,0.162697285413742,1753.29272460938,-9112.162109375,7918.09033203125
1124496000000519936,317.143890380859,-603.318603515625,336.682495117188,0.138139203190804,2188.50732421875,-9310.5224609375,7570.587890625
1124496000000651008,338.040985107422,-599.647338867188,303.626403808594,0.113581120967865,2611.287109375,-9508.8828125,7272.72900390625
1124496000000781056,358.938049316406,-597.199768066406,270.5703125,0.0951625630259514,3058.93627929688,-9657.65234375,6900.40478515625
1124496000000910976,379.835144042969,-589.857177734375,237.514205932617,0.0767439976334572,3469.28125,-9756.8330078125,6540.49169921875
1124496000001041024,399.502990722656,-581.290771484375,204.458099365234,0.0583254396915436,3916.93041992188,-9806.4228515625,6168.16748046875
1124496000001171968,417.941589355469,-573.948120117188,167.729110717773,0.0429766401648521,4364.57958984375,-9818.8203125,5771.02197265625
1124496000001302016,438.838653564453,-565.381774902344,133.448699951172,0.0245580803602934,4812.22900390625,-9843.615234375,5373.87646484375
1124496000001432064,456.048004150391,-555.591613769531,96.7197036743164,0.00613952009007335,5222.57421875,-9843.615234375,4939.49853515625
1124496000001561984,473.257385253906,-543.353881835938,62.4393005371094,-0.015348800458014,5608.0498046875,-9818.8203125,4517.53125
1124496000001693056,488.008270263672,-531.1162109375,28.1589012145996,-0.030697600916028,5981.0908203125,-9794.025390625,4021.09912109375
1124496000001822976,502.759124755859,-516.430969238281,-7.34580039978027,-0.0460464023053646,6329.26220703125,-9744.4345703125,3499.845703125
1124496000001953024,516.28076171875,-498.074401855469,-42.8505020141602,-0.0491161607205868,6664.9990234375,-9670.0498046875,2941.35961914063
1124496000002082944,528.573181152344,-477.270294189453,-74.6823043823242,-0.0491161607205868,6988.30126953125,-9620.4599609375,2420.10595703125
1124496000002214016,540.865600585938,-455.242462158203,-104.065505981445,-0.03990688174963,7286.734375,-9496.4853515625,1898.85241699219
1124496000002343936,550.699462890625,-431.990814208984,-131.000106811523,-0.0276278406381607,7560.2978515625,-9372.509765625,1365.18798828125
1124496000002473984,559.30419921875,-406.291656494141,-159.158996582031,-0.00920927990227938,7846.2958984375,-9198.9453125,831.523620605469
1124496000002604032,565.450378417969,-378.144927978516,-184.86930847168,0.0122790401801467,8107.42431640625,-9025.3798828125,310.269989013672
1124496000002734976,571.596557617188,-351.221984863281,-209.35530090332,0.0368371196091175,8380.98828125,-8839.41796875,-186.162002563477
1124496000002865024,577.742797851563,-320.627746582031,-232.617004394531,0.0644649639725685,8629.681640625,-8603.865234375,-670.183227539063
1124496000002994944,576.513549804688,-291.257263183594,-255.878707885742,0.0890230387449265,8853.5068359375,-8318.72265625,-1154.20434570313
1124496000003124992,577.742797851563,-259.439239501953,-277.916107177734,0.110511362552643,9102.2001953125,-8033.580078125,-1638.2255859375
1124496000003256064,575.284301757813,-226.3974609375,-299.953521728516,0.128929927945137,9313.58984375,-7674.052734375,-2097.42529296875
1124496000003385984,570.367309570313,-193.355667114258,-323.215209960938,0.144278720021248,9512.5458984375,-7351.71728515625,-2556.62475585938
1124496000003516032,566.679626464844,-161.537643432617,-345.252593994141,0.150418236851692,9674.1962890625,-6979.79248046875,-2991.00268554688
1124496000003645952,561.762634277344,-132.16716003418,-367.290008544922,0.15962752699852,9773.673828125,-6657.45751953125,-3425.380859375
1124496000003777024,554.38720703125,-100.349143981934,-386.878814697266,0.174976319074631,9823.4130859375,-6273.13525390625,-3896.9912109375
1124496000003906944,547.011779785156,-69.7548904418945,-406.467620849609,0.181115835905075,9848.2822265625,-5888.8125,-4356.19091796875
1124496000004036992,540.865600585938,-37.9368705749512,-427.280700683594,0.196464642882347,9885.5869140625,-5479.69482421875,-4802.9794921875
1124496000004167040,533.490112304688,-7.34261989593506,-446.869506835938,0.208743676543236,9898.021484375,-5058.18017578125,-5212.5361328125
1124496000004296960,526.114685058594,23.2516307830811,-462.785400390625,0.217952966690063,9860.716796875,-4599.47265625,-5572.44921875
1124496000004428032,517.510009765625,51.3983421325684,-479.925598144531,0.22716224193573,9848.2822265625,-4140.76513671875,-5944.77294921875
1124496000004557952,505.217620849609,78.3212814331055,-494.617218017578,0.224092483520508,9798.5439453125,-3632.46752929688,-6279.86474609375
1124496000004688000,491.695983886719,106.467994689941,-510.533111572266,0.221022725105286,9748.8046875,-3086.9775390625,-6614.95654296875
1124496000004818048,476.945098876953,132.16716003418,-526.449035644531,0.205673918128014,9686.630859375,-2553.88500976563,-6937.63720703125
1124496000004948992,459.735748291016,157.866333007813,-543.589233398438,0.187255367636681,9612.0234375,-2057.98510742188,-7223.08544921875
1124496000005079040,441.297149658203,182.341735839844,-555.832214355469,0.165767043828964,9462.806640625,-1524.89245605469,-7483.71240234375
1124496000005208960,417.941589355469,205.593368530273,-566.850891113281,0.138139203190804,9313.58984375,-1004.19750976563,-7744.33935546875
1124496000005339008,395.815246582031,227.621231079102,-579.093933105469,0.104371838271618,9164.3740234375,-471.105010986328,-8004.9658203125
1124496000005469952,367.542755126953,249.649078369141,-588.888305664063,0.0644649639725685,8990.2880859375,37.1925010681152,-8265.5927734375
1124496000005600000,340.499450683594,271.676940917969,-598.682739257813,0.0214883200824261,8766.4638671875,545.489990234375,-8501.3984375
1124496000005730048,309.768463134766,291.257263183594,-606.028503417969,-0.0184185598045588,8530.2041015625,1028.99255371094,-8724.7919921875
1124496000005859968,279.037475585938,310.837585449219,-610.925720214844,-0.0583254396915436,8269.0751953125,1487.69995117188,-8973.0087890625
1124496000005991040,247.077224731445,331.641662597656,-613.374328613281,-0.0951625630259514,7933.33837890625,1946.40747070313,-9183.9921875
1124496000006120960,213.887756347656,353.669525146484,-614.5986328125,-0.125860154628754,7585.1669921875,2405.11499023438,-9370.154296875
1124496000006251008,181.927505493164,374.4736328125,-615.822937011719,-0.153487995266914,7249.43017578125,2826.63012695313,-9556.31640625
1124496000006381056,149.967269897461,395.277709960938,-615.822937011719,-0.174976319074631,6863.95458984375,3272.93994140625,-9655.6025390625
1124496000006512000,120.465515136719,416.081817626953,-614.5986328125,-0.196464642882347,6515.78271484375,3706.8525390625,-9730.0673828125
1124496000006642048,88.5052795410156,435.662139892578,-612.150024414063,-0.224092483520508,6142.74169921875,4165.56005859375,-9767.2998046875
1124496000006771968,59.0035171508789,452.794921875,-610.925720214844,-0.251720309257507,5732.396484375,4611.8701171875,-9804.5322265625
1124496000006902016,25.8140392303467,471.151458740234,-607.252807617188,-0.279348164796829,5309.61669921875,5033.38525390625,-9804.5322265625
1124496000007032960,-4.91695976257324,487.060455322266,-604.80419921875,-0.306975990533829,4861.9677734375,5442.50244140625,-9804.5322265625
1124496000007163008,-33.1894798278809,501.745697021484,-598.682739257813,-0.325394570827484,4414.318359375,5789.63232421875,-9792.12109375
1124496000007293056,-61.4619979858398,515.207153320313,-590.112609863281,-0.343813121318817,3879.62646484375,6161.5576171875,-9754.888671875
1124496000007422976,-88.5052795410156,528.668640136719,-582.766784667969,-0.356092154979706,3369.8037109375,6483.892578125,-9705.2451171875
1124496000007554048,-114.319313049316,543.353881835938,-570.523803710938,-0.359161913394928,2835.11157226563,6831.0224609375,-9643.19140625
1124496000007683968,-140.133346557617,555.591613769531,-558.280822753906,-0.356092154979706,2300.41943359375,7116.1650390625,-9556.31640625
1124496000007814016,-162.259674072266,566.605529785156,-543.589233398438,-0.346882879734039,1753.29272460938,7401.3076171875,-9432.2080078125
1124496000007943936,-183.156753540039,575.171936035156,-526.449035644531,-0.331534087657928,1243.46997070313,7674.052734375,-9283.2783203125
1124496000008075008,-202.824584960938,583.73828125,-506.860198974609,-0.313115537166595,721.212585449219,7934.39990234375,-9121.9375
1124496000008205056,-222.492431640625,589.857177734375,-484.822814941406,-0.291627198457718,186.5205078125,8194.7470703125,-8948.1865234375
1124496000008334976,-242.160263061523,594.752258300781,-460.336822509766,-0.260929614305496,-335.736907958984,8442.697265625,-8762.0244140625
1124496000008465024,-260.598876953125,600.87109375,-433.402221679688,-0.230232000350952,-820.690185546875,8665.8525390625,-8551.041015625
1124496000008594944,-279.037475585938,602.094848632813,-405.243316650391,-0.202604159712791,-1305.6435546875,8864.212890625,-8278.00390625
1124496000008726016,-296.246826171875,600.87109375,-373.411499023438,-0.165767043828964,-1778.162109375,9087.3671875,-7992.55517578125
1124496000008856064,-317.143890380859,598.423522949219,-339.131103515625,-0.138139203190804,-2213.37670898438,9298.125,-7645.052734375
1124496000008985984,-336.811737060547,595.976013183594,-307.29931640625,-0.116650879383087,-2636.15649414063,9496.4853515625,-7334.78271484375
1124496000009116032,-357.708831787109,591.080932617188,-274.243194580078,-0.0951625630259514,-3083.8056640625,9645.2548828125,-6950.0478515625
1124496000009246976,-377.376647949219,584.962097167969,-239.962799072266,-0.0798137634992599,-3481.71606445313,9744.4345703125,-6602.54541015625
1124496000009377024,-398.273742675781,576.395690917969,-205.682403564453,-0.0644649639725685,-3929.365234375,9781.6279296875,-6217.810546875
1124496000009506944,-417.941589355469,569.053039550781,-171.402008056641,-0.0491161607205868,-4377.0146484375,9794.025390625,-5820.6650390625
1124496000009636992,-437.609405517578,560.486694335938,-135.897308349609,-0.0276278406381607,-4837.09814453125,9818.8203125,-5423.51953125
1124496000009767936,-456.048004150391,550.696533203125,-99.1683044433594,-0.00613952009007335,-5247.443359375,9818.8203125,-5013.96337890625
1124496000009897984,-472.028137207031,539.682556152344,-62.4393005371094,0.0122790401801467,-5620.484375,9794.025390625,-4579.5849609375
1124496000010028032,-486.779022216797,526.221130371094,-28.1589012145996,0.0276278406381607,-6005.9599609375,9769.23046875,-4083.15307617188
1124496000010157952,-501.529907226563,511.535858154297,6.12150001525879,0.03990688174963,-6354.1318359375,9719.6396484375,-3574.31030273438
1124496000010289024,-515.051513671875,493.179321289063,40.4019012451172,0.0460464023053646,-6677.43408203125,9670.0498046875,-3040.64599609375
1124496000010418944,-529.802429199219,473.598999023438,73.4580001831055,0.0460464023053646,-7013.1708984375,9583.267578125,-2519.39233398438
1124496000010548992,-542.094787597656,452.794921875,104.065505981445,0.0337673611938953,-7299.1689453125,9484.087890625,-1973.31713867188
1124496000010679040,-550.699462890625,429.543273925781,131.000106811523,0.0245580803602934,-7585.1669921875,9372.509765625,-1464.47436523438
1124496000010809984,-561.762634277344,403.844116210938,157.934707641602,0.00306976004503667,-7871.1650390625,9186.5478515625,-918.399169921875
1124496000010940032,-566.679626464844,375.697387695313,184.86930847168,-0.0184185598045588,-8132.2939453125,9000.5849609375,-384.734802246094
1124496000011069952,-572.825805664063,346.326904296875,209.35530090332,-0.03990688174963,-8418.2919921875,8827.0205078125,124.108001708984
1124496000011200000,-576.513549804688,316.956420898438,232.617004394531,-0.0644649639725685,-8654.55078125,8579.0703125,632.950805664063
1124496000011330944,-578.971984863281,286.362182617188,257.102996826172,-0.0951625630259514,-8890.810546875,8293.927734375,1116.97204589844
1124496000011460992,-577.742797851563,254.544158935547,277.916107177734,-0.116650879383087,-9139.5048828125,8008.78515625,1600.9931640625
1124496000011591040,-575.284301757813,221.502380371094,299.953521728516,-0.131999686360359,-9326.025390625,7649.25732421875,2060.19287109375
1124496000011720960,-570.367309570313,189.684356689453,321.990905761719,-0.14734847843647,-9524.98046875,7314.52490234375,2506.98168945313
1124496000011852032,-564.221130371094,157.866333007813,344.0283203125,-0.15962752699852,-9699.06640625,6967.39501953125,2953.7705078125
1124496000011981952,-560.533386230469,128.495849609375,364.841400146484,-0.168836802244186,-9786.109375,6620.26513671875,3388.1484375
1124496000012112000,-553.157958984375,96.6778335571289,385.654510498047,-0.178046077489853,-9848.2822265625,6248.33984375,3859.7587890625
1124496000012242048,-547.011779785156,67.3073501586914,405.243316650391,-0.190325126051903,-9873.1513671875,5851.6201171875,4306.54736328125
1124496000012372992,-540.865600585938,35.489330291748,424.832122802734,-0.199534401297569,-9910.4560546875,5454.89990234375,4753.33642578125
1124496000012503040,-533.490112304688,4.89508008956909,441.972320556641,-0.214883208274841,-9922.890625,5033.38525390625,5162.892578125
1124496000012632960,-524.885437011719,-25.6991710662842,459.112518310547,-0.224092483520508,-9898.021484375,4574.677734375,5535.216796875
1124496000012763008,-516.28076171875,-53.8458824157715,475.028411865234,-0.230232000350952,-9885.5869140625,4115.97021484375,5895.1298828125
1124496000012893056,-505.217620849609,-80.7688217163086,490.944305419922,-0.233301758766174,-9823.4130859375,3582.87744140625,6242.63232421875
1124496000013024000,-491.695983886719,-107.691764831543,508.084503173828,-0.22716224193573,-9773.673828125,3074.580078125,6565.31298828125
1124496000013154048,-475.715850830078,-134.614700317383,522.776123046875,-0.211813449859619,-9699.06640625,2541.48754882813,6875.5830078125
1124496000013283968,-459.735748291016,-160.313873291016,539.916320800781,-0.196464642882347,-9636.892578125,2020.79248046875,7173.4423828125
1124496000013414016,-440.067901611328,-184.789276123047,553.383605957031,-0.171906560659409,-9487.67578125,1524.89245605469,7421.658203125
1124496000013544960,-417.941589355469,-208.040908813477,565.626586914063,-0.144278720021248,-9350.89453125,979.402526855469,7682.28515625
1124496000013675008,-394.586029052734,-230.068771362305,576.645324707031,-0.110511362552643,-9189.2431640625,458.707489013672,7955.32275390625
1124496000013805056,-367.542755126953,-252.096618652344,586.439697265625,-0.0706044808030128,-9002.72265625,-49.5900001525879,8215.94921875
1124496000013934976,-339.270233154297,-272.900726318359,596.234130859375,-0.030697600916028,-8803.767578125,-557.887512207031,8451.7548828125
1124496000014066048,-309.768463134766,-293.704803466797,603.579895019531,0.00920927990227938,-8542.638671875,-1053.78747558594,8675.1494140625
1124496000014195968,-277.808227539063,-314.508880615234,608.477111816406,0.0491161607205868,-8293.9453125,-1512.49499511719,8923.365234375
1124496000014326016,-245.847991943359,-335.31298828125,612.150024414063,0.0859532803297043,-7945.7734375,-1958.80505371094,9121.9375
1124496000014456064,-213.887756347656,-357.340850830078,613.374328613281,0.113581120967865,-7597.6015625,-2417.51245117188,9320.5107421875
1124496000014587008,-181.927505493164,-378.144927978516,614.5986328125,0.141208961606026,-7286.734375,-2839.02758789063,9481.8515625
1124496000014717056,-149.967269897461,-400.172790527344,613.374328613281,0.165767043828964,-6888.82373046875,-3285.33740234375,9581.1376953125
1124496000014846976,-120.465515136719,-420.976898193359,614.5986328125,0.190325126051903,-6540.65234375,-3719.25,9668.013671875
1124496000014977024,-89.7345123291016,-440.557220458984,610.925720214844,0.217952966690063,-6155.17626953125,-4190.35498046875,9692.8349609375
1124496000015107968,-57.7742767333984,-457.690002441406,608.477111816406,0.242511048913002,-5757.26611328125,-4624.267578125,9742.4775390625
1124496000015238016,-25.8140392303467,-476.046539306641,606.028503417969,0.267069131135941,-5322.0517578125,-5058.18017578125,9754.888671875
1124496000015367936,4.91695976257324,-493.179321289063,601.131286621094,0.291627198457718,-4874.40234375,-5454.89990234375,9742.4775390625
1124496000015497984,33.1894798278809,-506.640777587891,597.458435058594,0.31925505399704,-4426.75341796875,-5814.427734375,9730.0673828125
1124496000015629056,61.4619979858398,-520.102233886719,590.112609863281,0.334603846073151,-3904.49584960938,-6173.955078125,9680.423828125
1124496000015758976,88.5052795410156,-532.339965820313,580.318237304688,0.346882879734039,-3382.23828125,-6521.0849609375,9643.19140625
1124496000015889024,114.319313049316,-545.801452636719,569.299499511719,0.353022396564484,-2847.54638671875,-6843.419921875,9581.1376953125
1124496000016018944,138.904113769531,-558.039123535156,555.832214355469,0.349952638149261,-2325.28881835938,-7140.9599609375,9506.6728515625
1124496000016150016,159.801193237305,-569.053039550781,542.364929199219,0.340743362903595,-1790.59680175781,-7426.1025390625,9370.154296875
1124496000016280064,181.927505493164,-578.843200683594,525.224731445313,0.328464329242706,-1268.33935546875,-7698.84765625,9221.224609375
1124496000016409984,202.824584960938,-584.962097167969,504.41162109375,0.306975990533829,-746.08203125,-7946.79736328125,9072.294921875
1124496000016540032,221.26318359375,-592.3046875,481.14990234375,0.282417923212051,-198.955200195313,-8207.1455078125,8886.1328125
1124496000016670976,240.931030273438,-597.199768066406,457.888214111328,0.257859855890274,298.432800292969,-8455.0947265625,8687.5595703125
1124496000016801024,260.598876953125,-602.094848632813,430.95361328125,0.22716224193573,795.82080078125,-8678.25,8476.576171875
1124496000016930944,277.808227539063,-604.542419433594,401.570404052734,0.193394884467125,1293.20874023438,-8889.0078125,8228.3603515625
1124496000017060992,297.47607421875,-604.542419433594,370.962921142578,0.165767043828964,1753.29272460938,-9099.7646484375,7918.09033203125
1124496000017191040,315.914672851563,-600.87109375,337.906799316406,0.135069444775581,2188.50732421875,-9298.125,7582.9990234375
1124496000017321984,336.811737060547,-600.87109375,303.626403808594,0.110511362552643,2611.287109375,-9508.8828125,7260.31787109375
1124496000017452032,357.708831787109,-594.752258300781,271.794616699219,0.0951625630259514,3046.50146484375,-9657.65234375,6887.994140625
1124496000017581952,378.605895996094,-588.633361816406,238.738510131836,0.0767439976334572,3469.28125,-9756.8330078125,6528.08056640625
1124496000017712000,398.273742675781,-582.514526367188,204.458099365234,0.061395201832056,3916.93041992188,-9806.4228515625,6168.16748046875
1124496000017842944,416.712341308594,-573.948120117188,168.953399658203,0.0429766401648521,4352.14501953125,-9806.4228515625,5771.02197265625
1124496000017972992,436.380187988281,-564.157958984375,133.448699951172,0.0245580803602934,4799.79443359375,-9843.615234375,5361.4658203125
1124496000018103040,454.818786621094,-554.367797851563,96.7197036743164,0.00306976004503667,5222.57421875,-9831.2177734375,4951.9091796875
1124496000018232960,472.028137207031,-543.353881835938,62.4393005371094,-0.015348800458014,5608.0498046875,-9806.4228515625,4529.94189453125
1124496000018364032,486.779022216797,-531.1162109375,29.3832015991211,-0.030697600916028,5981.0908203125,-9794.025390625,4033.51000976563
1124496000018493952,501.529907226563,-515.207153320313,-6.12150001525879,-0.0460464023053646,6329.26220703125,-9744.4345703125,3512.25634765625
