Time µs,Current.Ia,Current.Ib,Current.Ic,Current.In,Voltage.Va,Voltage.Vb,Voltage.Vc
1163462400000000000,-189.511672973633,-1096.51171875,1259.65637207031,0.0,648.230346679688,-9954.951171875,10436.4375
1163462400000130048,-142.133758544922,-1132.07421875,1212.34533691406,5.91223001480103,1165.06262207031,-10233.8994140625,10191.9013671875
1163462400000260096,-100.678077697754,-1143.92834472656,1153.20654296875,0.0,1603.05615234375,-10434.392578125,9842.564453125
1163462400000389888,-47.3779182434082,-1173.56384277344,1094.06774902344,0.0,2058.5693359375,-10634.88671875,9475.7607421875
1163462400000519936,5.92223978042603,-1197.27221679688,1040.84289550781,5.91223001480103,2479.04296875,-10722.0576171875,9100.2236328125
1163462400000651008,71.0668792724609,-1226.90771484375,981.704040527344,5.91223001480103,2917.03662109375,-10765.6435546875,8672.2861328125
1163462400000781056,153.978240966797,-1262.47021484375,916.6513671875,0.0,3346.27026367188,-10835.380859375,8244.3486328125
1163462400000911104,225.045104980469,-1298.03271484375,857.512573242188,0.0,3775.50390625,-10852.814453125,7755.27734375
1163462400001040896,302.034240722656,-1333.59533691406,798.373779296875,5.91223001480103,4213.4970703125,-10922.5517578125,7222.53857421875
1163462400001170944,384.945587158203,-1369.15783691406,739.234985351563,5.91223001480103,4669.01025390625,-10966.13671875,6672.3330078125
1163462400001302016,467.85693359375,-1404.72033691406,680.09619140625,0.0,5142.04345703125,-10983.5712890625,6078.46044921875
1163462400001432064,538.923828125,-1440.28295898438,632.78515625,5.91223001480103,5650.11572265625,-10992.2880859375,5467.12109375
1163462400001562112,621.835205078125,-1469.91833496094,585.47412109375,5.91223001480103,6166.9482421875,-11001.005859375,4829.58154296875
1163462400001691904,686.979797363281,-1499.55383300781,549.990844726563,0.0,6666.2607421875,-10992.2880859375,4209.5087890625
1163462400001821952,746.202209472656,-1517.33508300781,508.593658447266,0.0,7165.5732421875,-10966.13671875,3598.16918945313
1163462400001953024,799.502380371094,-1523.26220703125,473.110382080078,5.91223001480103,7629.84619140625,-10939.9853515625,2986.82983398438
1163462400002083072,846.880310058594,-1523.26220703125,443.540985107422,5.91223001480103,8076.599609375,-10887.6826171875,2401.69067382813
1163462400002213120,900.180419921875,-1523.26220703125,402.143829345703,5.91223001480103,8497.0732421875,-10826.6630859375,1842.75170898438
1163462400002342912,935.7138671875,-1499.55383300781,366.660552978516,11.8244600296021,8891.267578125,-10765.6435546875,1283.81274414063
1163462400002472960,971.247314453125,-1475.84545898438,331.177276611328,5.91223001480103,9259.1826171875,-10669.7548828125,733.607299804688
1163462400002604032,1000.85852050781,-1440.28295898438,295.694000244141,0.0,9600.8173828125,-10547.7158203125,174.668411254883
1163462400002734080,1030.4697265625,-1404.72033691406,248.382949829102,5.91223001480103,9924.9326171875,-10390.8076171875,-366.803649902344
1163462400002864128,1054.15869140625,-1345.44946289063,206.985794067383,-5.91223001480103,10231.52734375,-10155.4453125,-925.742553710938
1163462400002993920,1066.00317382813,-1286.17858886719,153.760879516602,0.0,10485.5634765625,-9850.345703125,-1414.81408691406
1163462400003124992,1089.69213867188,-1232.83471679688,100.535957336426,0.0,10722.080078125,-9527.8125,-1877.68542480469
1163462400003255040,1101.53662109375,-1167.63671875,41.397159576416,0.0,10853.478515625,-9170.41015625,-2314.3564453125
1163462400003385088,1131.14782714844,-1096.51171875,-29.5693988800049,0.0,10888.517578125,-8795.57421875,-2785.96118164063
1163462400003514880,1154.83679199219,-1025.38659667969,-100.535957336426,0.0,10923.5576171875,-8394.5869140625,-3248.83227539063
1163462400003644928,1184.44799804688,-960.188598632813,-171.502517700195,0.0,10976.1162109375,-7958.73095703125,-3685.50341796875
1163462400003776000,1214.05920410156,-894.990600585938,-260.210723876953,0.0,11019.916015625,-7453.1376953125,-4130.90771484375
1163462400003906048,1243.67041015625,-823.865539550781,-337.091156005859,0.0,11063.71484375,-6886.52490234375,-4585.0458984375
1163462400004036096,1273.28149414063,-758.667541503906,-419.885467529297,-5.91223001480103,11098.7548828125,-6285.04345703125,-5047.9169921875
1163462400004165888,1302.89270019531,-693.469543457031,-502.679779052734,0.0,11125.0341796875,-5657.4111328125,-5554.45556640625
1163462400004295936,1332.50390625,-646.052856445313,-573.646362304688,0.0,11142.5537109375,-4977.4755859375,-6087.19384765625
1163462400004427008,1350.27062988281,-592.709045410156,-644.612915039063,0.0,11151.314453125,-4323.69140625,-6611.19921875
1163462400004557056,1368.03735351563,-551.219360351563,-715.579467773438,0.0,11133.7939453125,-3687.341796875,-7117.73779296875
1163462400004687104,1373.95959472656,-515.656860351563,-768.804382324219,0.0,11072.4755859375,-3050.99194335938,-7624.27587890625
1163462400004816896,1379.8818359375,-491.948486328125,-810.201538085938,0.0,11037.435546875,-2493.09643554688,-8026.01318359375
1163462400004946944,1373.95959472656,-444.531768798828,-851.598693847656,-5.91223001480103,10984.8759765625,-1909.04931640625,-8445.2177734375
1163462400005078016,1362.11511230469,-414.896301269531,-898.909729003906,0.0,10914.7978515625,-1359.87072753906,-8838.2216796875
1163462400005208064,1338.42614746094,-373.406677246094,-934.393005371094,-11.8244600296021,10835.958984375,-819.409301757813,-9205.025390625
1163462400005338112,1302.89270019531,-331.917053222656,-969.876281738281,0.0,10695.80078125,-270.230712890625,-9554.3623046875
1163462400005467904,1267.35925292969,-290.427429199219,-993.531799316406,0.0,10520.603515625,244.079360961914,-9877.498046875
1163462400005597952,1219.9814453125,-254.864883422852,-1017.18731689453,0.0,10310.3662109375,723.52099609375,-10183.16796875
1163462400005729024,1166.68127441406,-195.593978881836,-1046.75671386719,0.0,10021.291015625,1159.376953125,-10427.7041015625
1163462400005859072,1113.38110351563,-142.25016784668,-1070.41223144531,-5.91223001480103,9653.3759765625,1569.08166503906,-10637.3056640625
1163462400005989120,1054.15869140625,-77.0521697998047,-1088.15393066406,0.0,9294.2216796875,1952.63488769531,-10846.908203125
1163462400006118912,994.936279296875,0.0,-1117.72326660156,0.0,8917.546875,2353.62255859375,-10899.30859375
1163462400006249984,929.791625976563,88.9063491821289,-1153.20654296875,-5.91223001480103,8505.8330078125,2780.76123046875,-10942.9755859375
1163462400006380032,864.647033691406,171.885620117188,-1182.77600097656,0.0,8085.359375,3216.61743164063,-11004.109375
1163462400006510080,793.580139160156,266.719055175781,-1212.34533691406,0.0,7586.046875,3669.90747070313,-11012.8427734375
1163462400006640128,734.357727050781,361.552490234375,-1253.74255371094,-5.91223001480103,7051.69482421875,4123.19775390625,-11065.2431640625
1163462400006769920,669.213073730469,456.385955810547,-1283.31188964844,-5.91223001480103,6473.54345703125,4620.07373046875,-11135.111328125
1163462400006900992,615.912963867188,539.365234375,-1318.79516601563,0.0,5869.11279296875,5143.10107421875,-11126.3779296875
1163462400007031040,562.61279296875,628.271545410156,-1348.36462402344,0.0,5264.681640625,5692.279296875,-11143.8447265625
1163462400007161088,515.23486328125,705.32373046875,-1377.93395996094,0.0,4651.49072265625,6232.74072265625,-11135.111328125
1163462400007290880,473.779174804688,770.521728515625,-1395.67565917969,0.0,4047.05981445313,6764.4853515625,-11108.9111328125
1163462400007420928,438.245758056641,835.7197265625,-1401.58947753906,0.0,3425.10888671875,7252.64404296875,-11082.7109375
1163462400007552000,402.712310791016,894.990600585938,-1413.41723632813,0.0,2820.67797851563,7723.36865234375,-11056.509765625
1163462400007682048,367.178863525391,930.553161621094,-1401.58947753906,-5.91223001480103,2216.2470703125,8141.7900390625,-11012.8427734375
1163462400007812096,331.645416259766,977.969848632813,-1389.76171875,-5.91223001480103,1629.33569335938,8542.77734375,-10951.708984375
1163462400007941888,302.034240722656,1025.38659667969,-1377.93395996094,-5.91223001480103,1042.42443847656,8926.3310546875,-10890.5751953125
1163462400008071936,260.578552246094,1055.02209472656,-1348.36462402344,-5.91223001480103,481.792816162109,9275.015625,-10777.041015625
1163462400008203008,230.967346191406,1084.65747070313,-1306.96740722656,-5.91223001480103,-96.3585662841797,9606.2666015625,-10628.572265625
1163462400008333056,195.43391418457,1108.36584472656,-1253.74255371094,0.0,-639.470458984375,9911.365234375,-10445.1708984375
1163462400008463104,153.978240966797,1132.07421875,-1212.34533691406,0.0,-1147.54296875,10181.5966796875,-10174.4345703125
1163462400008592896,112.522552490234,1149.85546875,-1153.20654296875,-5.91223001480103,-1603.05615234375,10390.8076171875,-9842.564453125
1163462400008722944,59.2223968505859,1167.63671875,-1105.8955078125,0.0,-2049.8095703125,10582.583984375,-9484.494140625
1163462400008854016,0.0,1197.27221679688,-1040.84289550781,0.0,-2470.283203125,10652.3212890625,-9100.2236328125
1163462400008984064,-65.1446380615234,1232.83471679688,-987.617919921875,-5.91223001480103,-2917.03662109375,10713.3408203125,-8681.01953125
1163462400009114112,-142.133758544922,1268.39733886719,-922.565246582031,0.0,-3346.27026367188,10765.6435546875,-8244.3486328125
1163462400009243904,-213.200637817383,1303.95983886719,-863.426452636719,0.0,-3775.50390625,10809.2294921875,-7746.5439453125
1163462400009374976,-290.189758300781,1339.52233886719,-804.287658691406,0.0,-4213.4970703125,10852.814453125,-7222.53857421875
1163462400009505024,-379.023345947266,1375.0849609375,-739.234985351563,0.0,-4669.01025390625,10905.1171875,-6672.3330078125
1163462400009635072,-450.090209960938,1404.72033691406,-686.010070800781,0.0,-5150.80322265625,10922.5517578125,-6078.46044921875
1163462400009765120,-527.079345703125,1452.13708496094,-632.78515625,-5.91223001480103,-5650.11572265625,10931.2685546875,-5467.12109375
1163462400009894912,-604.068481445313,1475.84545898438,-585.47412109375,0.0,-6175.7080078125,10931.2685546875,-4838.31494140625
1163462400010025984,-681.057556152344,1499.55383300781,-549.990844726563,0.0,-6683.7802734375,10922.5517578125,-4218.2421875
1163462400010156032,-734.357727050781,1517.33508300781,-508.593658447266,0.0,-7183.09326171875,10896.400390625,-3589.43579101563
1163462400010286080,-793.580139160156,1529.18920898438,-479.024261474609,0.0,-7656.1259765625,10870.2490234375,-2986.82983398438
1163462400010416128,-840.958068847656,1529.18920898438,-443.540985107422,0.0,-8094.11962890625,10835.380859375,-2401.69067382813
1163462400010545920,-888.3359375,1523.26220703125,-408.057708740234,0.0,-8514.5927734375,10783.078125,-1834.01831054688
1163462400010676992,-923.869384765625,1511.40795898438,-372.574432373047,0.0,-8908.787109375,10722.0576171875,-1275.07934570313
1163462400010807040,-953.480590820313,1481.77258300781,-325.263397216797,0.0,-9267.9423828125,10634.88671875,-716.140441894531
1163462400010937088,-983.091796875,1446.2099609375,-301.607879638672,0.0,-9618.3369140625,10495.4130859375,-165.934982299805
1163462400011066880,-1018.62524414063,1398.79333496094,-254.296829223633,0.0,-9933.6923828125,10347.2216796875,375.537078857422
1163462400011196928,-1030.4697265625,1357.30358886719,-206.985794067383,0.0,-10240.287109375,10129.2939453125,917.009155273438
1163462400011328000,-1054.15869140625,1298.03271484375,-159.674758911133,0.0,-10476.8037109375,9824.1943359375,1388.61389160156
1163462400011458048,-1071.92541503906,1238.76184082031,-106.449836730957,5.91223001480103,-10730.83984375,9501.6611328125,1851.48510742188
1163462400011588096,-1089.69213867188,1179.49096679688,-47.3110389709473,5.91223001480103,-10853.478515625,9144.2587890625,2296.8896484375
1163462400011717888,-1113.38110351563,1108.36584472656,17.7416400909424,0.0,-10888.517578125,8769.4228515625,2751.02734375
1163462400011847936,-1131.14782714844,1037.24072265625,94.6220779418945,0.0,-10932.3173828125,8377.15234375,3222.63208007813
1163462400011979008,-1166.68127441406,966.11572265625,171.502517700195,0.0,-10976.1162109375,7932.57958984375,3659.30322265625
1163462400012109056,-1196.29248046875,900.917724609375,248.382949829102,0.0,-11028.67578125,7435.70361328125,4104.70751953125
1163462400012239104,-1231.82592773438,823.865539550781,337.091156005859,-5.91223001480103,-11063.71484375,6877.8076171875,4558.84521484375
1163462400012368896,-1255.51489257813,758.667541503906,419.885467529297,0.0,-11107.5146484375,6258.89208984375,5030.4501953125
1163462400012499968,-1285.1259765625,699.396667480469,502.679779052734,5.91223001480103,-11133.7939453125,5631.259765625,5528.2548828125
1163462400012630016,-1314.73718261719,646.052856445313,579.560241699219,5.91223001480103,-11151.314453125,4977.4755859375,6060.99365234375
1163462400012760064,-1332.50390625,598.636108398438,656.440673828125,0.0,-11160.07421875,4323.69140625,6584.9990234375
1163462400012890112,-1350.27062988281,563.073547363281,709.665588378906,5.91223001480103,-11151.314453125,3678.62475585938,7091.537109375
1163462400013019904,-1362.11511230469,527.511047363281,762.890502929688,5.91223001480103,-11089.9951171875,3042.27490234375,7589.34228515625
1163462400013150976,-1373.95959472656,486.021392822266,816.115417480469,5.91223001480103,-11054.955078125,2449.5107421875,8052.21337890625
1163462400013281024,-1356.19287109375,456.385955810547,863.426452636719,5.91223001480103,-10984.8759765625,1882.89794921875,8462.6845703125
1163462400013411072,-1350.27062988281,426.75048828125,904.823608398438,5.91223001480103,-10914.7978515625,1325.00231933594,8855.6884765625
1163462400013541120,-1320.65942382813,379.333770751953,940.306884765625,5.91223001480103,-10835.958984375,793.257934570313,9222.4921875
1163462400013670912,-1291.04821777344,343.771240234375,975.790161132813,0.0,-10713.3203125,261.513610839844,9563.095703125
1163462400013801984,-1255.51489257813,296.354522705078,1005.35955810547,5.91223001480103,-10538.123046875,-244.079360961914,9894.96484375
1163462400013932032,-1202.21472167969,254.864883422852,1023.10119628906,5.91223001480103,-10319.1259765625,-714.803833007813,10183.16796875
1163462400014062080,-1154.83679199219,207.448150634766,1046.75671386719,5.91223001480103,-10021.291015625,-1150.65991210938,10445.1708984375
1163462400014192128,-1101.53662109375,148.177261352539,1070.41223144531,5.91223001480103,-9679.65625,-1560.36450195313,10663.505859375
1163462400014321920,-1042.31420898438,88.9063491821289,1082.23999023438,5.91223001480103,-9302.9814453125,-1970.06921386719,10846.908203125
1163462400014452992,-977.169555664063,0.0,1105.8955078125,0.0,-8908.787109375,-2371.056640625,10916.775390625
1163462400014583040,-912.02490234375,-82.9792633056641,1141.37878417969,5.91223001480103,-8514.5927734375,-2798.19555664063,10969.17578125
1163462400014713088,-852.802551269531,-160.031433105469,1165.03430175781,0.0,-8076.599609375,-3242.76879882813,11004.109375
1163462400014842880,-781.735656738281,-254.864883422852,1212.34533691406,0.0,-7594.80712890625,-3687.341796875,11039.04296875
1163462400014972928,-722.513244628906,-349.698333740234,1247.82861328125,5.91223001480103,-7051.69482421875,-4158.06640625,11082.7109375
1163462400015104000,-663.290832519531,-444.531768798828,1283.31188964844,5.91223001480103,-6473.54345703125,-4637.5078125,11126.3779296875
1163462400015234048,-604.068481445313,-539.365234375,1324.70910644531,0.0,-5886.63232421875,-5177.96923828125,11152.578125
1163462400015364096,-550.768310546875,-616.417358398438,1348.36462402344,0.0,-5282.201171875,-5718.4306640625,11161.3115234375
1163462400015493888,-509.312622070313,-693.469543457031,1372.02014160156,5.91223001480103,-4660.25048828125,-6267.609375,11143.8447265625
1163462400015624960,-461.934692382813,-764.594604492188,1389.76171875,0.0,-4055.81958007813,-6799.353515625,11126.3779296875
1163462400015755008,-426.401275634766,-823.865539550781,1401.58947753906,5.91223001480103,-3433.86889648438,-7287.5126953125,11108.9111328125
1163462400015885056,-390.867828369141,-871.2822265625,1401.58947753906,0.0,-2829.43798828125,-7758.23681640625,11065.2431640625
1163462400016015104,-355.334381103516,-924.626037597656,1401.58947753906,5.91223001480103,-2242.52661132813,-8176.65869140625,11039.04296875
1163462400016144896,-319.800933837891,-972.042785644531,1389.76171875,0.0,-1638.09558105469,-8586.36328125,10969.17578125
1163462400016275968,-290.189758300781,-1013.53240966797,1372.02014160156,5.91223001480103,-1051.18432617188,-8969.9169921875,10899.30859375
1163462400016406016,-254.656311035156,-1043.16784667969,1342.45068359375,5.91223001480103,-481.792816162109,-9318.6015625,10794.5078125
1163462400016536064,-219.12287902832,-1072.80334472656,1306.96740722656,5.91223001480103,105.118438720703,-9658.5693359375,10637.3056640625
1163462400016666112,-177.667190551758,-1096.51171875,1259.65637207031,0.0,648.230346679688,-9954.951171875,10462.6376953125
1163462400016795904,-142.133758544922,-1126.14709472656,1206.43151855469,0.0,1165.06262207031,-10233.8994140625,10191.9013671875
1163462400016926976,-100.678077697754,-1143.92834472656,1153.20654296875,-11.8244600296021,1611.81604003906,-10443.1103515625,9851.2978515625
1163462400017057024,-47.3779182434082,-1167.63671875,1094.06774902344,5.91223001480103,2058.5693359375,-10634.88671875,9493.2275390625
1163462400017187072,0.0,-1203.19934082031,1034.92895507813,5.91223001480103,2479.04296875,-10713.3408203125,9100.2236328125
1163462400017317120,71.0668792724609,-1226.90771484375,975.790161132813,0.0,2908.27661132813,-10765.6435546875,8681.01953125
1163462400017446912,142.133758544922,-1262.47021484375,916.6513671875,5.91223001480103,3346.27026367188,-10826.6630859375,8244.3486328125
1163462400017577984,225.045104980469,-1298.03271484375,857.512573242188,0.0,3766.74389648438,-10870.2490234375,7755.27734375
1163462400017708032,302.034240722656,-1327.66821289063,792.459899902344,0.0,4204.7373046875,-10931.2685546875,7231.27197265625
1163462400017838080,379.023345947266,-1369.15783691406,733.321105957031,5.91223001480103,4660.25048828125,-10966.13671875,6672.3330078125
1163462400017968128,461.934692382813,-1398.79333496094,680.09619140625,5.91223001480103,5142.04345703125,-10983.5712890625,6078.46044921875
1163462400018097920,544.846069335938,-1440.28295898438,632.78515625,5.91223001480103,5641.35595703125,-10992.2880859375,5467.12109375
1163462400018228992,615.912963867188,-1463.9912109375,585.47412109375,5.91223001480103,6166.9482421875,-11001.005859375,4829.58154296875
1163462400018359040,681.057556152344,-1487.69958496094,544.076965332031,5.91223001480103,6675.0205078125,-10992.2880859375,4218.2421875
1163462400018489088,746.202209472656,-1505.48095703125,508.593658447266,5.91223001480103,7165.5732421875,-10974.8544921875,3606.90258789063
1163462400018618880,799.502380371094,-1517.33508300781,473.110382080078,11.8244600296021,7638.6064453125,-10913.833984375,2995.56323242188
1163462400018749952,846.880310058594,-1523.26220703125,443.540985107422,0.0,8076.599609375,-10913.833984375,2419.15747070313
1163462400018880000,888.3359375,-1517.33508300781,408.057708740234,0.0,8497.0732421875,-10826.6630859375,1834.01831054688
1163462400019010048,935.7138671875,-1505.48095703125,372.574432373047,0.0,8900.02734375,-10765.6435546875,1283.81274414063
1163462400019140096,971.247314453125,-1475.84545898438,325.263397216797,0.0,9250.421875,-10678.47265625,733.607299804688
1163462400019269888,994.936279296875,-1440.28295898438,289.780120849609,5.91223001480103,9600.8173828125,-10547.7158203125,174.668411254883
1163462400019400960,1024.54748535156,-1392.8662109375,248.382949829102,0.0,9933.6923828125,-10382.08984375,-366.803649902344
1163462400019531008,1042.31420898438,-1345.44946289063,201.071914672852,0.0,10231.52734375,-10164.162109375,-925.742553710938
1163462400019661056,1066.00317382813,-1286.17858886719,159.674758911133,0.0,10485.5634765625,-9867.7802734375,-1414.81408691406
